id,value
0.10,1.21
0.20,1.44
0.30,1.69
0.40,1.96
0.50,2.25
0.60,2.56
0.70,2.89
0.80,3.24
0.90,3.61
1.00,4.00
1.10,4.41
1.20,4.84
1.30,5.29
1.40,5.76
1.50,6.25
1.60,6.76
1.70,7.29
1.80,7.84
1.90,8.41
2.00,9.00
2.10,9.61
2.20,10.24
2.30,10.89
2.40,11.56
2.50,12.25
2.60,12.96
2.70,13.69
2.80,14.44
2.90,15.21
3.00,16.00
3.10,16.81
3.20,17.64
3.30,18.49
3.40,19.36
3.50,20.25
3.60,21.16
3.70,22.09
3.80,23.04
3.90,24.01
4.00,25.00
4.10,26.01
4.20,27.04
4.30,28.09
4.40,29.16
4.50,30.25
4.60,31.36
4.70,32.49
4.80,33.64
4.90,34.81
5.00,36.00
5.10,37.21
5.20,38.44
5.30,39.69
5.40,40.96
5.50,42.25
5.60,43.56
5.70,44.89
5.80,46.24
5.90,47.61
6.00,49.00
6.10,50.41
6.20,51.84
6.30,53.29
6.40,54.76
6.50,56.25
6.60,57.76
6.70,59.29
6.80,60.84
6.90,62.41
7.00,64.00
7.10,65.61
7.20,67.24
7.30,68.89
7.40,70.56
7.50,72.25
7.60,73.96
7.70,75.69
7.80,77.44
7.90,79.21
8.00,81.00
8.10,82.81
8.20,84.64
8.30,86.49
8.40,88.36
8.50,90.25
8.60,92.16
8.70,94.09
8.80,96.04
8.90,98.01
9.00,100.00
9.10,102.01
9.20,104.04
9.30,106.09
9.40,108.16
9.50,110.25
9.60,112.36
9.70,114.49
9.80,116.64
9.90,118.81
10.00,121.00
10.10,123.21
10.20,125.44
10.30,127.69
10.40,129.96
10.50,132.25
10.60,134.56
10.70,136.89
10.80,139.24
10.90,141.61
11.00,144.00
11.10,146.41
11.20,148.84
11.30,151.29
11.40,153.76
11.50,156.25
11.60,158.76
11.70,161.29
11.80,163.84
11.90,166.41
12.00,169.00
12.10,171.61
12.20,174.24
12.30,176.89
12.40,179.56
12.50,182.25
12.60,184.96
12.70,187.69
12.80,190.44
12.90,193.21
13.00,196.00
13.10,198.81
13.20,201.64
13.30,204.49
13.40,207.36
13.50,210.25
13.60,213.16
13.70,216.09
13.80,219.04
13.90,222.01
14.00,225.00
14.10,228.01
14.20,231.04
14.30,234.09
14.40,237.16
14.50,240.25
14.60,243.36
14.70,246.49
14.80,249.64
14.90,252.81
15.00,256.00
15.10,259.21
15.20,262.44
15.30,265.69
15.40,268.96
15.50,272.25
15.60,275.56
15.70,278.89
15.80,282.24
15.90,285.61
16.00,289.00
16.10,292.41
16.20,295.84
16.30,299.29
16.40,302.76
16.50,306.25
16.60,309.76
16.70,313.29
16.80,316.84
16.90,320.41
17.00,324.00
17.10,327.61
17.20,331.24
17.30,334.89
17.40,338.56
17.50,342.25
17.60,345.96
17.70,349.69
17.80,353.44
17.90,357.21
18.00,361.00
18.10,364.81
18.20,368.64
18.30,372.49
18.40,376.36
18.50,380.25
18.60,384.16
18.70,388.09
18.80,392.04
18.90,396.01
19.00,400.00
19.10,404.01
19.20,408.04
19.30,412.09
19.40,416.16
19.50,420.25
19.60,424.36
19.70,428.49
19.80,432.64
19.90,436.81
20.00,441.00
20.10,445.21
20.20,449.44
20.30,453.69
20.40,457.96
20.50,462.25
20.60,466.56
20.70,470.89
20.80,475.24
20.90,479.61
21.00,484.00
21.10,488.41
21.20,492.84
21.30,497.29
21.40,501.76
21.50,506.25
21.60,510.76
21.70,515.29
21.80,519.84
21.90,524.41
22.00,529.00
22.10,533.61
22.20,538.24
22.30,542.89
22.40,547.56
22.50,552.25
22.60,556.96
22.70,561.69
22.80,566.44
22.90,571.21
23.00,576.00
23.10,580.81
23.20,585.64
23.30,590.49
23.40,595.36
23.50,600.25
23.60,605.16
23.70,610.09
23.80,615.04
23.90,620.01
24.00,625.00
24.10,630.01
24.20,635.04
24.30,640.09
24.40,645.16
24.50,650.25
24.60,655.36
24.70,660.49
24.80,665.64
24.90,670.81
25.00,676.00
25.10,681.21
25.20,686.44
25.30,691.69
25.40,696.96
25.50,702.25
25.60,707.56
25.70,712.89
25.80,718.24
25.90,723.61
26.00,729.00
26.10,734.41
26.20,739.84
26.30,745.29
26.40,750.76
26.50,756.25
26.60,761.76
26.70,767.29
26.80,772.84
26.90,778.41
27.00,784.00
27.10,789.61
27.20,795.24
27.30,800.89
27.40,806.56
27.50,812.25
27.60,817.96
27.70,823.69
27.80,829.44
27.90,835.21
28.00,841.00
28.10,846.81
28.20,852.64
28.30,858.49
28.40,864.36
28.50,870.25
28.60,876.16
28.70,882.09
28.80,888.04
28.90,894.01
29.00,900.00
29.10,906.01
29.20,912.04
29.30,918.09
29.40,924.16
29.50,930.25
29.60,936.36
29.70,942.49
29.80,948.64
29.90,954.81
30.00,961.00
30.10,967.21
30.20,973.44
30.30,979.69
30.40,985.96
30.50,992.25
30.60,998.56
30.70,1004.89
30.80,1011.24
30.90,1017.61
31.00,1024.00
31.10,1030.41
31.20,1036.84
31.30,1043.29
31.40,1049.76
31.50,1056.25
31.60,1062.76
31.70,1069.29
31.80,1075.84
31.90,1082.41
32.00,1089.00
32.10,1095.61
32.20,1102.24
32.30,1108.89
32.40,1115.56
32.50,1122.25
32.60,1128.96
32.70,1135.69
32.80,1142.44
32.90,1149.21
33.00,1156.00
33.10,1162.81
33.20,1169.64
33.30,1176.49
33.40,1183.36
33.50,1190.25
33.60,1197.16
33.70,1204.09
33.80,1211.04
33.90,1218.01
34.00,1225.00
34.10,1232.01
34.20,1239.04
34.30,1246.09
34.40,1253.16
34.50,1260.25
34.60,1267.36
34.70,1274.49
34.80,1281.64
34.90,1288.81
35.00,1296.00
35.10,1303.21
35.20,1310.44
35.30,1317.69
35.40,1324.96
35.50,1332.25
35.60,1339.56
35.70,1346.89
35.80,1354.24
35.90,1361.61
36.00,1369.00
36.10,1376.41
36.20,1383.84
36.30,1391.29
36.40,1398.76
36.50,1406.25
36.60,1413.76
36.70,1421.29
36.80,1428.84
36.90,1436.41
37.00,1444.00
37.10,1451.61
37.20,1459.24
37.30,1466.89
37.40,1474.56
37.50,1482.25
37.60,1489.96
37.70,1497.69
37.80,1505.44
37.90,1513.21
38.00,1521.00
38.10,1528.81
38.20,1536.64
38.30,1544.49
38.40,1552.36
38.50,1560.25
38.60,1568.16
38.70,1576.09
38.80,1584.04
38.90,1592.01
39.00,1600.00
39.10,1608.01
39.20,1616.04
39.30,1624.09
39.40,1632.16
39.50,1640.25
39.60,1648.36
39.70,1656.49
39.80,1664.64
39.90,1672.81
40.00,1681.00
40.10,1689.21
40.20,1697.44
40.30,1705.69
40.40,1713.96
40.50,1722.25
40.60,1730.56
40.70,1738.89
40.80,1747.24
40.90,1755.61
41.00,1764.00
41.10,1772.41
41.20,1780.84
41.30,1789.29
41.40,1797.76
41.50,1806.25
41.60,1814.76
41.70,1823.29
41.80,1831.84
41.90,1840.41
42.00,1849.00
42.10,1857.61
42.20,1866.24
42.30,1874.89
42.40,1883.56
42.50,1892.25
42.60,1900.96
42.70,1909.69
42.80,1918.44
42.90,1927.21
43.00,1936.00
43.10,1944.81
43.20,1953.64
43.30,1962.49
43.40,1971.36
43.50,1980.25
43.60,1989.16
43.70,1998.09
43.80,2007.04
43.90,2016.01
44.00,2025.00
44.10,2034.01
44.20,2043.04
44.30,2052.09
44.40,2061.16
44.50,2070.25
44.60,2079.36
44.70,2088.49
44.80,2097.64
44.90,2106.81
45.00,2116.00
45.10,2125.21
45.20,2134.44
45.30,2143.69
45.40,2152.96
45.50,2162.25
45.60,2171.56
45.70,2180.89
45.80,2190.24
45.90,2199.61
46.00,2209.00
46.10,2218.41
46.20,2227.84
46.30,2237.29
46.40,2246.76
46.50,2256.25
46.60,2265.76
46.70,2275.29
46.80,2284.84
46.90,2294.41
47.00,2304.00
47.10,2313.61
47.20,2323.24
47.30,2332.89
47.40,2342.56
47.50,2352.25
47.60,2361.96
47.70,2371.69
47.80,2381.44
47.90,2391.21
48.00,2401.00
48.10,2410.81
48.20,2420.64
48.30,2430.49
48.40,2440.36
48.50,2450.25
48.60,2460.16
48.70,2470.09
48.80,2480.04
48.90,2490.01
49.00,2500.00
49.10,2510.01
49.20,2520.04
49.30,2530.09
49.40,2540.16
49.50,2550.25
49.60,2560.36
49.70,2570.49
49.80,2580.64
49.90,2590.81
50.00,2601.00
50.10,2611.21
50.20,2621.44
50.30,2631.69
50.40,2641.96
50.50,2652.25
50.60,2662.56
50.70,2672.89
50.80,2683.24
50.90,2693.61
51.00,2704.00
51.10,2714.41
51.20,2724.84
51.30,2735.29
51.40,2745.76
51.50,2756.25
51.60,2766.76
51.70,2777.29
51.80,2787.84
51.90,2798.41
52.00,2809.00
52.10,2819.61
52.20,2830.24
52.30,2840.89
52.40,2851.56
52.50,2862.25
52.60,2872.96
52.70,2883.69
52.80,2894.44
52.90,2905.21
53.00,2916.00
53.10,2926.81
53.20,2937.64
53.30,2948.49
53.40,2959.36
53.50,2970.25
53.60,2981.16
53.70,2992.09
53.80,3003.04
53.90,3014.01
54.00,3025.00
54.10,3036.01
54.20,3047.04
54.30,3058.09
54.40,3069.16
54.50,3080.25
54.60,3091.36
54.70,3102.49
54.80,3113.64
54.90,3124.81
55.00,3136.00
55.10,3147.21
55.20,3158.44
55.30,3169.69
55.40,3180.96
55.50,3192.25
55.60,3203.56
55.70,3214.89
55.80,3226.24
55.90,3237.61
56.00,3249.00
56.10,3260.41
56.20,3271.84
56.30,3283.29
56.40,3294.76
56.50,3306.25
56.60,3317.76
56.70,3329.29
56.80,3340.84
56.90,3352.41
57.00,3364.00
57.10,3375.61
57.20,3387.24
57.30,3398.89
57.40,3410.56
57.50,3422.25
57.60,3433.96
57.70,3445.69
57.80,3457.44
57.90,3469.21
58.00,3481.00
58.10,3492.81
58.20,3504.64
58.30,3516.49
58.40,3528.36
58.50,3540.25
58.60,3552.16
58.70,3564.09
58.80,3576.04
58.90,3588.01
59.00,3600.00
59.10,3612.01
59.20,3624.04
59.30,3636.09
59.40,3648.16
59.50,3660.25
59.60,3672.36
59.70,3684.49
59.80,3696.64
59.90,3708.81
60.00,3721.00
60.10,3733.21
60.20,3745.44
60.30,3757.69
60.40,3769.96
60.50,3782.25
60.60,3794.56
60.70,3806.89
60.80,3819.24
60.90,3831.61
61.00,3844.00
61.10,3856.41
61.20,3868.84
61.30,3881.29
61.40,3893.76
61.50,3906.25
61.60,3918.76
61.70,3931.29
61.80,3943.84
61.90,3956.41
62.00,3969.00
62.10,3981.61
62.20,3994.24
62.30,4006.89
62.40,4019.56
62.50,4032.25
62.60,4044.96
62.70,4057.69
62.80,4070.44
62.90,4083.21
63.00,4096.00
63.10,4108.81
63.20,4121.64
63.30,4134.49
63.40,4147.36
63.50,4160.25
63.60,4173.16
63.70,4186.09
63.80,4199.04
63.90,4212.01
64.00,4225.00
64.10,4238.01
64.20,4251.04
64.30,4264.09
64.40,4277.16
64.50,4290.25
64.60,4303.36
64.70,4316.49
64.80,4329.64
64.90,4342.81
65.00,4356.00
65.10,4369.21
65.20,4382.44
65.30,4395.69
65.40,4408.96
65.50,4422.25
65.60,4435.56
65.70,4448.89
65.80,4462.24
65.90,4475.61
66.00,4489.00
66.10,4502.41
66.20,4515.84
66.30,4529.29
66.40,4542.76
66.50,4556.25
66.60,4569.76
66.70,4583.29
66.80,4596.84
66.90,4610.41
67.00,4624.00
67.10,4637.61
67.20,4651.24
67.30,4664.89
67.40,4678.56
67.50,4692.25
67.60,4705.96
67.70,4719.69
67.80,4733.44
67.90,4747.21
68.00,4761.00
68.10,4774.81
68.20,4788.64
68.30,4802.49
68.40,4816.36
68.50,4830.25
68.60,4844.16
68.70,4858.09
68.80,4872.04
68.90,4886.01
69.00,4900.00
69.10,4914.01
69.20,4928.04
69.30,4942.09
69.40,4956.16
69.50,4970.25
69.60,4984.36
69.70,4998.49
69.80,5012.64
69.90,5026.81
70.00,5041.00
70.10,5055.21
70.20,5069.44
70.30,5083.69
70.40,5097.96
70.50,5112.25
70.60,5126.56
70.70,5140.89
70.80,5155.24
70.90,5169.61
71.00,5184.00
71.10,5198.41
71.20,5212.84
71.30,5227.29
71.40,5241.76
71.50,5256.25
71.60,5270.76
71.70,5285.29
71.80,5299.84
71.90,5314.41
72.00,5329.00
72.10,5343.61
72.20,5358.24
72.30,5372.89
72.40,5387.56
72.50,5402.25
72.60,5416.96
72.70,5431.69
72.80,5446.44
72.90,5461.21
73.00,5476.00
73.10,5490.81
73.20,5505.64
73.30,5520.49
73.40,5535.36
73.50,5550.25
73.60,5565.16
73.70,5580.09
73.80,5595.04
73.90,5610.01
74.00,5625.00
74.10,5640.01
74.20,5655.04
74.30,5670.09
74.40,5685.16
74.50,5700.25
74.60,5715.36
74.70,5730.49
74.80,5745.64
74.90,5760.81
75.00,5776.00
75.10,5791.21
75.20,5806.44
75.30,5821.69
75.40,5836.96
75.50,5852.25
75.60,5867.56
75.70,5882.89
75.80,5898.24
75.90,5913.61
76.00,5929.00
76.10,5944.41
76.20,5959.84
76.30,5975.29
76.40,5990.76
76.50,6006.25
76.60,6021.76
76.70,6037.29
76.80,6052.84
76.90,6068.41
77.00,6084.00
77.10,6099.61
77.20,6115.24
77.30,6130.89
77.40,6146.56
77.50,6162.25
77.60,6177.96
77.70,6193.69
77.80,6209.44
77.90,6225.21
78.00,6241.00
78.10,6256.81
78.20,6272.64
78.30,6288.49
78.40,6304.36
78.50,6320.25
78.60,6336.16
78.70,6352.09
78.80,6368.04
78.90,6384.01
79.00,6400.00
79.10,6416.01
79.20,6432.04
79.30,6448.09
79.40,6464.16
79.50,6480.25
79.60,6496.36
79.70,6512.49
79.80,6528.64
79.90,6544.81
80.00,6561.00
80.10,6577.21
80.20,6593.44
80.30,6609.69
80.40,6625.96
80.50,6642.25
80.60,6658.56
80.70,6674.89
80.80,6691.24
80.90,6707.61
81.00,6724.00
81.10,6740.41
81.20,6756.84
81.30,6773.29
81.40,6789.76
81.50,6806.25
81.60,6822.76
81.70,6839.29
81.80,6855.84
81.90,6872.41
82.00,6889.00
82.10,6905.61
82.20,6922.24
82.30,6938.89
82.40,6955.56
82.50,6972.25
82.60,6988.96
82.70,7005.69
82.80,7022.44
82.90,7039.21
83.00,7056.00
83.10,7072.81
83.20,7089.64
83.30,7106.49
83.40,7123.36
83.50,7140.25
83.60,7157.16
83.70,7174.09
83.80,7191.04
83.90,7208.01
84.00,7225.00
84.10,7242.01
84.20,7259.04
84.30,7276.09
84.40,7293.16
84.50,7310.25
84.60,7327.36
84.70,7344.49
84.80,7361.64
84.90,7378.81
85.00,7396.00
85.10,7413.21
85.20,7430.44
85.30,7447.69
85.40,7464.96
85.50,7482.25
85.60,7499.56
85.70,7516.89
85.80,7534.24
85.90,7551.61
86.00,7569.00
86.10,7586.41
86.20,7603.84
86.30,7621.29
86.40,7638.76
86.50,7656.25
86.60,7673.76
86.70,7691.29
86.80,7708.84
86.90,7726.41
87.00,7744.00
87.10,7761.61
87.20,7779.24
87.30,7796.89
87.40,7814.56
87.50,7832.25
87.60,7849.96
87.70,7867.69
87.80,7885.44
87.90,7903.21
88.00,7921.00
88.10,7938.81
88.20,7956.64
88.30,7974.49
88.40,7992.36
88.50,8010.25
88.60,8028.16
88.70,8046.09
88.80,8064.04
88.90,8082.01
89.00,8100.00
89.10,8118.01
89.20,8136.04
89.30,8154.09
89.40,8172.16
89.50,8190.25
89.60,8208.36
89.70,8226.49
89.80,8244.64
89.90,8262.81
90.00,8281.00
90.10,8299.21
90.20,8317.44
90.30,8335.69
90.40,8353.96
90.50,8372.25
90.60,8390.56
90.70,8408.89
90.80,8427.24
90.90,8445.61
91.00,8464.00
91.10,8482.41
91.20,8500.84
91.30,8519.29
91.40,8537.76
91.50,8556.25
91.60,8574.76
91.70,8593.29
91.80,8611.84
91.90,8630.41
92.00,8649.00
92.10,8667.61
92.20,8686.24
92.30,8704.89
92.40,8723.56
92.50,8742.25
92.60,8760.96
92.70,8779.69
92.80,8798.44
92.90,8817.21
93.00,8836.00
93.10,8854.81
93.20,8873.64
93.30,8892.49
93.40,8911.36
93.50,8930.25
93.60,8949.16
93.70,8968.09
93.80,8987.04
93.90,9006.01
94.00,9025.00
94.10,9044.01
94.20,9063.04
94.30,9082.09
94.40,9101.16
94.50,9120.25
94.60,9139.36
94.70,9158.49
94.80,9177.64
94.90,9196.81
95.00,9216.00
95.10,9235.21
95.20,9254.44
95.30,9273.69
95.40,9292.96
95.50,9312.25
95.60,9331.56
95.70,9350.89
95.80,9370.24
95.90,9389.61
96.00,9409.00
96.10,9428.41
96.20,9447.84
96.30,9467.29
96.40,9486.76
96.50,9506.25
96.60,9525.76
96.70,9545.29
96.80,9564.84
96.90,9584.41
97.00,9604.00
97.10,9623.61
97.20,9643.24
97.30,9662.89
97.40,9682.56
97.50,9702.25
97.60,9721.96
97.70,9741.69
97.80,9761.44
97.90,9781.21
98.00,9801.00
98.10,9820.81
98.20,9840.64
98.30,9860.49
98.40,9880.36
98.50,9900.25
98.60,9920.16
98.70,9940.09
98.80,9960.04
98.90,9980.01
99.00,10000.00
99.10,10020.01
99.20,10040.04
99.30,10060.09
99.40,10080.16
99.50,10100.25
99.60,10120.36
99.70,10140.49
99.80,10160.64
99.90,10180.81
100.00,10201.00
100.10,10221.21
100.20,10241.44
100.30,10261.69
100.40,10281.96
100.50,10302.25
100.60,10322.56
100.70,10342.89
100.80,10363.24
100.90,10383.61
101.00,10404.00
101.10,10424.41
101.20,10444.84
101.30,10465.29
101.40,10485.76
101.50,10506.25
101.60,10526.76
101.70,10547.29
101.80,10567.84
101.90,10588.41
102.00,10609.00
102.10,10629.61
102.20,10650.24
102.30,10670.89
102.40,10691.56
102.50,10712.25
102.60,10732.96
102.70,10753.69
102.80,10774.44
102.90,10795.21
103.00,10816.00
103.10,10836.81
103.20,10857.64
103.30,10878.49
103.40,10899.36
103.50,10920.25
103.60,10941.16
103.70,10962.09
103.80,10983.04
103.90,11004.01
104.00,11025.00
104.10,11046.01
104.20,11067.04
104.30,11088.09
104.40,11109.16
104.50,11130.25
104.60,11151.36
104.70,11172.49
104.80,11193.64
104.90,11214.81
105.00,11236.00
105.10,11257.21
105.20,11278.44
105.30,11299.69
105.40,11320.96
105.50,11342.25
105.60,11363.56
105.70,11384.89
105.80,11406.24
105.90,11427.61
106.00,11449.00
106.10,11470.41
106.20,11491.84
106.30,11513.29
106.40,11534.76
106.50,11556.25
106.60,11577.76
106.70,11599.29
106.80,11620.84
106.90,11642.41
107.00,11664.00
107.10,11685.61
107.20,11707.24
107.30,11728.89
107.40,11750.56
107.50,11772.25
107.60,11793.96
107.70,11815.69
107.80,11837.44
107.90,11859.21
108.00,11881.00
108.10,11902.81
108.20,11924.64
108.30,11946.49
108.40,11968.36
108.50,11990.25
108.60,12012.16
108.70,12034.09
108.80,12056.04
108.90,12078.01
109.00,12100.00
109.10,12122.01
109.20,12144.04
109.30,12166.09
109.40,12188.16
109.50,12210.25
109.60,12232.36
109.70,12254.49
109.80,12276.64
109.90,12298.81
110.00,12321.00
110.10,12343.21
110.20,12365.44
110.30,12387.69
110.40,12409.96
110.50,12432.25
110.60,12454.56
110.70,12476.89
110.80,12499.24
110.90,12521.61
111.00,12544.00
111.10,12566.41
111.20,12588.84
111.30,12611.29
111.40,12633.76
111.50,12656.25
111.60,12678.76
111.70,12701.29
111.80,12723.84
111.90,12746.41
112.00,12769.00
112.10,12791.61
112.20,12814.24
112.30,12836.89
112.40,12859.56
112.50,12882.25
112.60,12904.96
112.70,12927.69
112.80,12950.44
112.90,12973.21
113.00,12996.00
113.10,13018.81
113.20,13041.64
113.30,13064.49
113.40,13087.36
113.50,13110.25
113.60,13133.16
113.70,13156.09
113.80,13179.04
113.90,13202.01
114.00,13225.00
114.10,13248.01
114.20,13271.04
114.30,13294.09
114.40,13317.16
114.50,13340.25
114.60,13363.36
114.70,13386.49
114.80,13409.64
114.90,13432.81
115.00,13456.00
115.10,13479.21
115.20,13502.44
115.30,13525.69
115.40,13548.96
115.50,13572.25
115.60,13595.56
115.70,13618.89
115.80,13642.24
115.90,13665.61
116.00,13689.00
116.10,13712.41
116.20,13735.84
116.30,13759.29
116.40,13782.76
116.50,13806.25
116.60,13829.76
116.70,13853.29
116.80,13876.84
116.90,13900.41
117.00,13924.00
117.10,13947.61
117.20,13971.24
117.30,13994.89
117.40,14018.56
117.50,14042.25
117.60,14065.96
117.70,14089.69
117.80,14113.44
117.90,14137.21
118.00,14161.00
118.10,14184.81
118.20,14208.64
118.30,14232.49
118.40,14256.36
118.50,14280.25
118.60,14304.16
118.70,14328.09
118.80,14352.04
118.90,14376.01
119.00,14400.00
119.10,14424.01
119.20,14448.04
119.30,14472.09
119.40,14496.16
119.50,14520.25
119.60,14544.36
119.70,14568.49
119.80,14592.64
119.90,14616.81
120.00,14641.00
120.10,14665.21
120.20,14689.44
120.30,14713.69
120.40,14737.96
120.50,14762.25
120.60,14786.56
120.70,14810.89
120.80,14835.24
120.90,14859.61
121.00,14884.00
121.10,14908.41
121.20,14932.84
121.30,14957.29
121.40,14981.76
121.50,15006.25
121.60,15030.76
121.70,15055.29
121.80,15079.84
121.90,15104.41
122.00,15129.00
122.10,15153.61
122.20,15178.24
122.30,15202.89
122.40,15227.56
122.50,15252.25
122.60,15276.96
122.70,15301.69
122.80,15326.44
122.90,15351.21
123.00,15376.00
123.10,15400.81
123.20,15425.64
123.30,15450.49
123.40,15475.36
123.50,15500.25
123.60,15525.16
123.70,15550.09
123.80,15575.04
123.90,15600.01
124.00,15625.00
124.10,15650.01
124.20,15675.04
124.30,15700.09
124.40,15725.16
124.50,15750.25
124.60,15775.36
124.70,15800.49
124.80,15825.64
124.90,15850.81
125.00,15876.00
125.10,15901.21
125.20,15926.44
125.30,15951.69
125.40,15976.96
125.50,16002.25
125.60,16027.56
125.70,16052.89
125.80,16078.24
125.90,16103.61
126.00,16129.00
126.10,16154.41
126.20,16179.84
126.30,16205.29
126.40,16230.76
126.50,16256.25
126.60,16281.76
126.70,16307.29
126.80,16332.84
126.90,16358.41
127.00,16384.00
127.10,16409.61
127.20,16435.24
127.30,16460.89
127.40,16486.56
127.50,16512.25
127.60,16537.96
127.70,16563.69
127.80,16589.44
127.90,16615.21
128.00,16641.00
128.10,16666.81
128.20,16692.64
128.30,16718.49
128.40,16744.36
128.50,16770.25
128.60,16796.16
128.70,16822.09
128.80,16848.04
128.90,16874.01
129.00,16900.00
129.10,16926.01
129.20,16952.04
129.30,16978.09
129.40,17004.16
129.50,17030.25
129.60,17056.36
129.70,17082.49
129.80,17108.64
129.90,17134.81
130.00,17161.00
130.10,17187.21
130.20,17213.44
130.30,17239.69
130.40,17265.96
130.50,17292.25
130.60,17318.56
130.70,17344.89
130.80,17371.24
130.90,17397.61
131.00,17424.00
131.10,17450.41
131.20,17476.84
131.30,17503.29
131.40,17529.76
131.50,17556.25
131.60,17582.76
131.70,17609.29
131.80,17635.84
131.90,17662.41
132.00,17689.00
132.10,17715.61
132.20,17742.24
132.30,17768.89
132.40,17795.56
132.50,17822.25
132.60,17848.96
132.70,17875.69
132.80,17902.44
132.90,17929.21
133.00,17956.00
133.10,17982.81
133.20,18009.64
133.30,18036.49
133.40,18063.36
133.50,18090.25
133.60,18117.16
133.70,18144.09
133.80,18171.04
133.90,18198.01
134.00,18225.00
134.10,18252.01
134.20,18279.04
134.30,18306.09
134.40,18333.16
134.50,18360.25
134.60,18387.36
134.70,18414.49
134.80,18441.64
134.90,18468.81
135.00,18496.00
135.10,18523.21
135.20,18550.44
135.30,18577.69
135.40,18604.96
135.50,18632.25
135.60,18659.56
135.70,18686.89
135.80,18714.24
135.90,18741.61
136.00,18769.00
136.10,18796.41
136.20,18823.84
136.30,18851.29
136.40,18878.76
136.50,18906.25
136.60,18933.76
136.70,18961.29
136.80,18988.84
136.90,19016.41
137.00,19044.00
137.10,19071.61
137.20,19099.24
137.30,19126.89
137.40,19154.56
137.50,19182.25
137.60,19209.96
137.70,19237.69
137.80,19265.44
137.90,19293.21
138.00,19321.00
138.10,19348.81
138.20,19376.64
138.30,19404.49
138.40,19432.36
138.50,19460.25
138.60,19488.16
138.70,19516.09
138.80,19544.04
138.90,19572.01
139.00,19600.00
139.10,19628.01
139.20,19656.04
139.30,19684.09
139.40,19712.16
139.50,19740.25
139.60,19768.36
139.70,19796.49
139.80,19824.64
139.90,19852.81
140.00,19881.00
140.10,19909.21
140.20,19937.44
140.30,19965.69
140.40,19993.96
140.50,20022.25
